time,force,tip,base
0.0,0.0,1e-11,1e-11
0.0005,5.540948737785462e-11,-9.6222103993878e-10,-9.899999999992205e-10
0.001,8.697048512166401e-11,-1.9464306392718745e-09,-1.989999999998776e-09
0.0015,1.1465554272650299e-10,-2.93258844398973e-09,-2.9900000000073547e-09
0.002,1.410840819156348e-10,-3.919374183232958e-09,-3.990000000010459e-09
0.0025,1.6711923466610722e-10,-4.906356603063993e-09,-4.989999999998358e-09
0.003,1.9314843173698397e-10,-5.893342011129132e-09,-5.9899999999862574e-09
0.0035,2.1937309006620363e-10,-6.880229694089336e-09,-6.9899999999741565e-09
0.004,2.459069582504798e-10,-7.866962775369724e-09,-7.989999999962056e-09
0.0045000000000000005,2.7281740169910424e-10,-8.853507570984355e-09,-8.989999999949955e-09
0.005,3.0014524149980556e-10,-9.839843669618884e-09,-9.989999999937854e-09
0.0055000000000000005,3.2791522988688754e-10,-1.0825958694674683e-08,-1.0989999999925753e-08
0.006,3.561419810508314e-10,-1.181184533874414e-08,-1.1989999999913652e-08
0.006500000000000001,3.848335137173853e-10,-1.2797499592258601e-08,-1.2989999999901551e-08
0.007,4.1399345847497585e-10,-1.3782919639784296e-08,-1.398999999988945e-08
0.007500000000000001,4.4362248056265994e-10,-1.4768105148606781e-08,-1.498999999987735e-08
0.008,4.737192225601857e-10,-1.5753056797371422e-08,-1.598999999986525e-08
0.0085,5.042809431823961e-10,-1.673777595667637e-08,-1.6989999999853148e-08
0.009000000000000001,5.353039581584816e-10,-1.7722264468627175e-08,-1.7989999999841047e-08
0.0095,5.667839490589744e-10,-1.8706524492418588e-08,-1.8989999999828946e-08
0.01,5.987161821766647e-10,-1.9690558394891705e-08,-1.9989999999816845e-08
0.0105,6.310956650408488e-10,-2.0674368672274776e-08,-2.0989999999804744e-08
0.011000000000000001,6.639172590226099e-10,-2.1657957893878426e-08,-2.1989999999792643e-08
0.0115,6.971757606204163e-10,-2.264132866145283e-08,-2.2989999999780542e-08
0.012,7.308659601483487e-10,-2.3624483579841723e-08,-2.398999999976844e-08
0.0125,7.649826839723397e-10,-2.460742523586513e-08,-2.498999999975634e-08
0.013000000000000001,7.995208246642566e-10,-2.559015618324004e-08,-2.598999999974424e-08
0.0135,8.344753622384478e-10,-2.6572678931963914e-08,-2.6989999999732138e-08
0.014,8.698413787614424e-10,-2.755499594100793e-08,-2.7989999999720037e-08
0.0145,9.056140680325907e-10,-2.8537109613477394e-08,-2.8989999999707936e-08
0.015000000000000001,9.41788741584707e-10,-2.951902229361103e-08,-2.9989999999695835e-08
0.0155,9.783608319410847e-10,-3.0500736265152274e-08,-3.0989999999683734e-08
0.016,1.0153258938319189e-09,-3.148225375074171e-08,-3.198999999967163e-08
0.0165,1.0526796038962393e-09,-3.2463576912064215e-08,-3.298999999965953e-08
0.017,1.0904177592780099e-09,-3.344470785055282e-08,-3.398999999964743e-08
0.0175,1.1285362754162015e-09,-3.442564860849452e-08,-3.498999999963533e-08
0.018000000000000002,1.1670311832551496e-09,-3.5406401170420096e-08,-3.598999999962323e-08
0.0185,1.2058986260735155e-09,-3.638696746469565e-08,-3.698999999961113e-08
0.019,1.2451348560414996e-09,-3.736734936524037e-08,-3.798999999959903e-08
0.0195,1.2847362306274326e-09,-3.8347548693324746e-08,-3.8989999999586926e-08
0.02,1.324699208923503e-09,-3.932756721940704e-08,-3.9989999999574825e-08
0.0205,1.365020347951358e-09,-4.030740666498004e-08,-4.0989999999562724e-08
0.021,1.4056962989950859e-09,-4.128706870440556e-08,-4.1989999999550623e-08
0.021500000000000002,1.4467238039898415e-09,-4.226655496672017e-08,-4.298999999953852e-08
0.022000000000000002,1.4880996919904287e-09,-4.32458670373994e-08,-4.398999999952642e-08
0.0225,1.5298208757434216e-09,-4.4225006460074226e-08,-4.498999999951432e-08
0.023,1.5718843483627406e-09,-4.5203974738190673e-08,-4.598999999950222e-08
0.0235,1.6142871801282619e-09,-4.618277333661176e-08,-4.698999999949012e-08
0.024,1.6570265154054474e-09,-4.716140368315803e-08,-4.798999999947802e-08
0.0245,1.7000995696882361e-09,-4.813986717008562e-08,-4.8989999999465917e-08
0.025,1.7435036267662589e-09,-4.911816515550223e-08,-4.9989999999453816e-08
0.025500000000000002,1.7872360360166682e-09,-5.0096298964721905e-08,-5.0989999999441715e-08
0.026000000000000002,1.8312942098165015e-09,-5.107426989155918e-08,-5.1989999999429614e-08
0.0265,1.8756756210695427e-09,-5.205207919956382e-08,-5.298999999941751e-08
0.027,1.9203778008544284e-09,-5.3029728123200034e-08,-5.398999999940541e-08
0.0275,1.9653983361727436e-09,-5.400721786896847e-08,-5.498999999939331e-08
0.028,2.010734867812233e-09,-5.498454961647716e-08,-5.598999999938121e-08
0.0285,2.0563850883099377e-09,-5.5961724519461636e-08,-5.698999999936911e-08
0.029,2.1023467400019884e-09,-5.693874370675393e-08,-5.798999999935701e-08
0.029500000000000002,2.1486176131830467e-09,-5.7915608283209206e-08,-5.898999999934491e-08
0.030000000000000002,2.195195544445094e-09,-5.889231933066142e-08,-5.99899999994603e-08
0.0305,2.2420784146429643e-09,-5.986887790876124e-08,-6.098999999977908e-08
0.031,2.289264147709539e-09,-6.084528505533751e-08,-6.199000000009785e-08
0.0315,2.3367507090093535e-09,-6.182154178771353e-08,-6.299000000041662e-08
0.032,2.3845361038148545e-09,-6.279764910325234e-08,-6.399000000073539e-08
0.0325,2.4326183759728845e-09,-6.377360798003451e-08,-6.499000000105416e-08
0.033,2.4809956065764575e-09,-6.474941937751256e-08,-6.599000000137293e-08
0.0335,2.529665912722409e-09,-6.572508423714093e-08,-6.69900000016917e-08
0.034,2.578627446306635e-09,-6.670060348297247e-08,-6.799000000201047e-08
0.0345,2.6278783928869463e-09,-6.767597802223006e-08,-6.899000000232925e-08
0.035,2.677416970591795e-09,-6.865120874585078e-08,-6.999000000264802e-08
0.035500000000000004,2.727241429080912e-09,-6.962629652900595e-08,-7.099000000296679e-08
0.036000000000000004,2.7773500485522802e-09,-7.060124223159751e-08,-7.199000000328556e-08
0.0365,2.8277411387959403e-09,-7.157604669873304e-08,-7.299000000360433e-08
0.037,2.878413038280292e-09,-7.255071076117759e-08,-7.39900000039231e-08
0.0375,2.9293641132924285e-09,-7.352523523578859e-08,-7.499000000424187e-08
0.038,2.9805927571128516e-09,-7.449962092593131e-08,-7.599000000456064e-08
0.0385,3.032097389202011e-09,-7.547386862187163e-08,-7.699000000487942e-08
0.039,3.083876454463934e-09,-7.64479791011606e-08,-7.799000000519819e-08
0.0395,3.1359284225053542e-09,-7.742195312899557e-08,-7.899000000551696e-08
0.04,3.1882517869412854e-09,-7.839579145856943e-08,-7.999000000583573e-08
0.0405,3.2408450647291156e-09,-7.936949483140525e-08,-8.09900000061545e-08
0.041,3.2937067955250426e-09,-8.034306397767622e-08,-8.199000000647327e-08
0.0415,3.3468355410677483e-09,-8.131649961651312e-08,-8.299000000679204e-08
0.042,3.400229884591347e-09,-8.22898024563e-08,-8.399000000711081e-08
0.0425,3.4538884302576558e-09,-8.32629731949578e-08,-8.499000000742959e-08
0.043000000000000003,3.5078098026063866e-09,-8.423601252021543e-08,-8.599000000774836e-08
0.043500000000000004,3.5619926460406186e-09,-8.520892110987359e-08,-8.699000000806713e-08
0.044000000000000004,3.6164356243157804e-09,-8.618169963205518e-08,-8.79900000083859e-08
0.0445,3.6711374200571196e-09,-8.71543487454478e-08,-8.899000000870467e-08
0.045,3.726096734295522e-09,-8.812686909953746e-08,-8.999000000902344e-08
0.0455,3.781312286017874e-09,-8.909926133483288e-08,-9.099000000934221e-08
0.046,3.836782811727226e-09,-9.007152608308059e-08,-9.199000000966099e-08
0.0465,3.892507065037295e-09,-9.104366396747555e-08,-9.299000000997976e-08
0.047,3.948483816263677e-09,-9.201567560286083e-08,-9.399000001029853e-08
0.0475,4.004711852036018e-09,-9.298756159592162e-08,-9.49900000106173e-08
0.048,4.061189974927154e-09,-9.395932254537297e-08,-9.599000001093607e-08
0.0485,4.117917003087779e-09,-9.493095904213984e-08,-9.699000001125484e-08
0.049,4.174891769900879e-09,-9.590247166953212e-08,-9.799000001157361e-08
0.0495,4.232113123639837e-09,-9.68738610034125e-08,-9.899000001189238e-08
0.05,4.2895799271476425e-09,-9.784512761236031e-08,-9.999000001221116e-08
0.0505,4.347291057519267e-09,-9.881627205782895e-08,-1.0099000001252993e-07
0.051000000000000004,4.405245405796901e-09,-9.978729489429819e-08,-1.019900000128487e-07
0.051500000000000004,4.46344187667375e-09,-1.0075819666942182e-07,-1.0299000001316747e-07
0.052000000000000005,4.521879388209709e-09,-1.0172897792417059e-07,-1.0399000001348624e-07
0.0525,4.580556871552753e-09,-1.0269963919297037e-07,-1.0499000001380501e-07
0.053,4.6394732706743005e-09,-1.0367018100383703e-07,-1.0599000001412378e-07
0.0535,4.698627542103024e-09,-1.0464060387850527e-07,-1.0699000001444255e-07
0.054,4.758018654681193e-09,-1.0561090833255595e-07,-1.0799000001476133e-07
0.0545,4.817645589312653e-09,-1.0658109487553737e-07,-1.089900000150801e-07
0.055,4.877507338727587e-09,-1.0755116401108403e-07,-1.0999000001539887e-07
0.0555,4.937602907255917e-09,-1.0852111623703233e-07,-1.1099000001571764e-07
0.056,4.9979313105993235e-09,-1.0949095204553201e-07,-1.1199000001603641e-07
0.0565,5.058491575618181e-09,-1.1046067192315517e-07,-1.1299000001635518e-07
0.057,5.119282740104371e-09,-1.1143027635099904e-07,-1.1399000001667395e-07
0.0575,5.180303852612805e-09,-1.1239976580479494e-07,-1.1499000001699272e-07
0.058,5.241553972220199e-09,-1.133691407550008e-07,-1.159900000173115e-07
0.0585,5.303032168357551e-09,-1.1433840166690274e-07,-1.1699000001763027e-07
0.059000000000000004,5.364737520612001e-09,-1.153075490007075e-07,-1.1799000001794904e-07
0.059500000000000004,5.42666911854429e-09,-1.1627658321163497e-07,-1.1899000001826781e-07
0.060000000000000005,5.48882606115116e-09,-1.172455047496708e-07,-1.1999000001806994e-07
0.0605,5.551207458035968e-09,-1.182143140603848e-07,-1.2099000001772697e-07
0.061,5.613812427407126e-09,-1.1918301158481865e-07,-1.21990000017384e-07
0.0615,5.6766400969396315e-09,-1.2015159775913499e-07,-1.2299000001704102e-07
0.062,5.739689603472342e-09,-1.211200730149148e-07,-1.2399000001669805e-07
0.0625,5.802960092825582e-09,-1.220884377792549e-07,-1.2499000001635508e-07
0.063,5.866450719595091e-09,-1.2305669247483755e-07,-1.259900000160121e-07
0.0635,5.930160647107077e-09,-1.2402483752002168e-07,-1.2699000001566913e-07
0.064,5.994089047161981e-09,-1.2499287332889842e-07,-1.2799000001532616e-07
0.0645,6.058235099956141e-09,-1.259608003113718e-07,-1.2899000001498318e-07
0.065,6.1225979939212214e-09,-1.2692861887322488e-07,-1.299900000146402e-07
0.0655,6.187176925597755e-09,-1.2789632941618853e-07,-1.3099000001429724e-07
0.066,6.251971099497339e-09,-1.288639323380067e-07,-1.3199000001395426e-07
0.0665,6.316979727977548e-09,-1.2983142803250146e-07,-1.329900000136113e-07
0.067,6.3822020311141625e-09,-1.307988168896358e-07,-1.3399000001326832e-07
0.0675,6.447637236574916e-09,-1.3176609929557475e-07,-1.3499000001292535e-07
0.068,6.5132845795073265e-09,-1.3273327563274652e-07,-1.3599000001258237e-07
0.0685,6.579143302409536e-09,-1.337003462798999e-07,-1.369900000122394e-07
0.069,6.645212655031644e-09,-1.3466731161216388e-07,-1.3799000001189643e-07
0.0695,6.711491894244925e-09,-1.3563417200110125e-07,-1.3899000001155345e-07
0.07,6.77798028393855e-09,-1.366009278147646e-07,-1.3999000001121048e-07
0.07050000000000001,6.844677094926525e-09,-1.3756757941775214e-07,-1.409900000108675e-07
0.07100000000000001,6.911581604815754e-09,-1.3853412717125635e-07,-1.4199000001052453e-07
0.07150000000000001,6.978693097931218e-09,-1.3950057143311974e-07,-1.4299000001018156e-07
0.07200000000000001,7.046010865189178e-09,-1.4046691255788116e-07,-1.4399000000983859e-07
0.0725,7.113534204015402e-09,-1.4143315089682783e-07,-1.449900000094956e-07
0.073,7.181262418249263e-09,-1.4239928679804348e-07,-1.4599000000915264e-07
0.0735,7.249194818030321e-09,-1.4336532060645313e-07,-1.4699000000880967e-07
0.074,7.317330719737416e-09,-1.443312526638737e-07,-1.479900000084667e-07
0.0745,7.385669445864983e-09,-1.452970833090548e-07,-1.4899000000812372e-07
0.075,7.454210324954932e-09,-1.462628128777261e-07,-1.4999000000778075e-07
0.0755,7.522952691503722e-09,-1.4722844170263997e-07,-1.5099000000743777e-07
0.076,7.591895885877267e-09,-1.48193970113614e-07,-1.519900000070948e-07
0.0765,7.661039254225533e-09,-1.491593984375729e-07,-1.5299000000675183e-07
0.077,7.730382148404875e-09,-1.5012472699858968e-07,-1.5399000000640885e-07
0.0775,7.799923925884936e-09,-1.5108995611792436e-07,-1.5499000000606588e-07
0.078,7.869663949705692e-09,-1.52055086114068e-07,-1.559900000057229e-07
0.0785,7.939601588345388e-09,-1.5302011730277402e-07,-1.5699000000537993e-07
0.079,8.009736215687335e-09,-1.5398504999710188e-07,-1.5799000000503696e-07
0.0795,8.080067210931874e-09,-1.5494988450745214e-07,-1.58990000004694e-07
0.08,8.150593958520764e-09,-1.5591462114160274e-07,-1.5999000000435101e-07
0.0805,8.22131584807944e-09,-1.568792602047464e-07,-1.6099000000400804e-07
0.081,8.292232274319017e-09,-1.5784380199952203e-07,-1.6199000000366507e-07
0.0815,8.36334263699588e-09,-1.5880824682605302e-07,-1.629900000033221e-07
0.082,8.434646340832335e-09,-1.5977259498197956e-07,-1.6399000000297912e-07
0.0825,8.506142795448142e-09,-1.6073684676249121e-07,-1.6499000000263615e-07
0.083,8.577831415301167e-09,-1.6170100246036022e-07,-1.6599000000229318e-07
0.0835,8.649711619616852e-09,-1.6266506236597283e-07,-1.669900000019502e-07
0.084,8.721782832331938e-09,-1.6362902676736143e-07,-1.6799000000160723e-07
0.0845,8.79404448202985e-09,-1.645928959502348e-07,-1.6899000000126426e-07
0.085,8.866496001879545e-09,-1.6555667019800848e-07,-1.6999000000092128e-07
0.0855,8.939136829573612e-09,-1.6652034979183407e-07,-1.709900000005783e-07
0.08600000000000001,9.011966407287194e-09,-1.6748393501063036e-07,-1.7199000000023534e-07
0.08650000000000001,9.084984181587494e-09,-1.684474261311084e-07,-1.7298999999989236e-07
0.08700000000000001,9.158189603407654e-09,-1.694108234278029e-07,-1.739899999995494e-07
0.08750000000000001,9.231582127977899e-09,-1.7037412717309857e-07,-1.7498999999920642e-07
0.08800000000000001,9.305161214778536e-09,-1.7133733763725775e-07,-1.7598999999886344e-07
0.0885,9.378926327473402e-09,-1.72300455088446e-07,-1.7698999999852047e-07
0.089,9.45287693387676e-09,-1.7326347979276063e-07,-1.779899999981775e-07
0.0895,9.527012505872766e-09,-1.742264120142528e-07,-1.7898999999783452e-07
0.09,9.601332519399289e-09,-1.7518925201495737e-07,-1.7998999999749155e-07
0.0905,9.675836454377663e-09,-1.7615200005491495e-07,-1.8098999999714858e-07
0.091,9.750523794666116e-09,-1.771146563921971e-07,-1.819899999968056e-07
0.0915,9.825394028008633e-09,-1.780772212829297e-07,-1.8298999999646263e-07
0.092,9.900446645993743e-09,-1.7903969498131795e-07,-1.8398999999611966e-07
0.0925,9.975681144013624e-09,-1.800020777396699e-07,-1.8498999999577668e-07
0.093,1.0051097021199818e-08,-1.8096436980841724e-07,-1.859899999954337e-07
0.0935,1.0126693780392215e-08,-1.8192657143613956e-07,-1.8698999999509074e-07
0.094,1.0202470928095633e-08,-1.828886828695868e-07,-1.8798999999474776e-07
0.0945,1.0278427974425218e-08,-1.8385070435369934e-07,-1.889899999944048e-07
0.095,1.03545644330756e-08,-1.8481263613163152e-07,-1.8998999999406182e-07
0.0955,1.0430879821267487e-08,-1.8577447844477083e-07,-1.9098999999371885e-07
0.096,1.0507373659720127e-08,-1.8673623153276057e-07,-1.9198999999337587e-07
0.0965,1.0584045472596594e-08,-1.8769789563351858e-07,-1.929899999930329e-07
0.097,1.0660894787469119e-08,-1.8865947098325817e-07,-1.9398999999268993e-07
0.0975,1.0737921135286833e-08,-1.8962095781650877e-07,-1.9498999999234695e-07
0.098,1.0815124050308282e-08,-1.9058235636613163e-07,-1.9598999999200398e-07
0.0985,1.089250307011651e-08,-1.9154366686334597e-07,-1.96989999991661e-07
0.099,1.0970057735523085e-08,-1.9250488953774025e-07,-1.9798999999131803e-07
0.0995,1.1047787590569387e-08,-1.934660246172958e-07,-1.9898999999097506e-07
0.1,1.112569218247291e-08,-1.9442707232840298e-07,-1.9998999999063209e-07
0.1005,1.1203771061601706e-08,-1.9538803289588016e-07,-2.009899999902891e-07
0.101,1.1282023781423792e-08,-1.9634890654298995e-07,-2.0198999998994614e-07
0.1015,1.136044989849293e-08,-1.9730969349145895e-07,-2.0298999998960317e-07
0.10200000000000001,1.1439048972393009e-08,-1.9827039396149233e-07,-2.039899999892602e-07
0.10250000000000001,1.1517820565724833e-08,-1.9923100817179352e-07,-2.0498999998891722e-07
0.10300000000000001,1.15967642440484e-08,-2.001915363395777e-07,-2.0598999998857425e-07
0.10350000000000001,1.1675879575879785e-08,-2.0115197868059177e-07,-2.0698999998823127e-07
0.10400000000000001,1.1755166132631743e-08,-2.0211233540912724e-07,-2.079899999878883e-07
0.1045,1.1834623488596187e-08,-2.0307260673803816e-07,-2.0898999998754533e-07
0.105,1.1914251220907465e-08,-2.0403279287875592e-07,-2.0998999998720235e-07
0.1055,1.1994048909526486e-08,-2.049928940413063e-07,-2.1098999998685938e-07
0.106,1.2074016137176352e-08,-2.0595291043432102e-07,-2.119899999865164e-07
0.1065,1.215415248934995e-08,-2.0691284226505713e-07,-2.1298999998617343e-07
0.107,1.2234457554255623e-08,-2.078726897394088e-07,-2.1398999998583046e-07
0.1075,1.2314930922802725e-08,-2.0883245306192333e-07,-2.149899999854875e-07
0.108,1.2395572188561824e-08,-2.0979213243581455e-07,-2.1598999998514451e-07
0.1085,1.2476380947741542e-08,-2.1075172806297767e-07,-2.1698999998480154e-07
0.109,1.2557356799163071e-08,-2.11711240144003e-07,-2.1798999998445857e-07
0.1095,1.2638499344230533e-08,-2.1267066887819005e-07,-2.189899999841156e-07
0.11,1.271980818689621e-08,-2.136300144635595e-07,-2.1998999998377262e-07
0.1105,1.2801282933652597e-08,-2.1458927709686906e-07,-2.2098999998342965e-07
0.111,1.2882923193484696e-08,-2.1554845697362433e-07,-2.2198999998308668e-07
0.1115,1.2964728577849538e-08,-2.1650755428809194e-07,-2.229899999827437e-07
0.112,1.3046698700676494e-08,-2.1746656923331572e-07,-2.2398999998240073e-07
0.1125,1.3128833178303111e-08,-2.1842550200112456e-07,-2.2498999998205776e-07
0.113,1.3211131629467784e-08,-2.1938435278214692e-07,-2.2598999998171478e-07
0.1135,1.32935936752917e-08,-2.2034312176582376e-07,-2.269899999813718e-07
0.114,1.3376218939243209e-08,-2.2130180914041964e-07,-2.2798999998102884e-07
0.1145,1.345900704712767e-08,-2.2226041509303567e-07,-2.2898999998068586e-07
0.115,1.3541957627043682e-08,-2.2321893980961916e-07,-2.299899999803429e-07
0.1155,1.3625070309378341e-08,-2.241773834749777e-07,-2.3098999997999992e-07
0.116,1.3708344726776214e-08,-2.2513574627278865e-07,-2.3198999997965694e-07
0.1165,1.3791780514120836e-08,-2.26094028385612e-07,-2.3298999997931397e-07
0.117,1.3875377308502083e-08,-2.270522299948995e-07,-2.33989999978971e-07
0.11750000000000001,1.3959134749213934e-08,-2.280103512810083e-07,-2.3498999997862802e-07
0.11800000000000001,1.4043052477708094e-08,-2.289683924232088e-07,-2.3598999997828505e-07
0.11850000000000001,1.4127130137598834e-08,-2.299263535996983e-07,-2.3698999997794208e-07
0.11900000000000001,1.4211367374617526e-08,-2.308842349876087e-07,-2.379899999775991e-07
0.11950000000000001,1.429576383737347e-08,-2.3184203676339053e-07,-2.389899999780124e-07
0.12000000000000001,1.4380319174677579e-08,-2.3279975910245104e-07,-2.399899999789929e-07
0.1205,1.4465033038631664e-08,-2.3375740217817245e-07,-2.4098999997997343e-07
0.121,1.4549905083492123e-08,-2.347149661634261e-07,-2.4198999998095395e-07
0.1215,1.4634934965356964e-08,-2.356724512301612e-07,-2.4298999998193446e-07
0.122,1.4720122342316997e-08,-2.3662985754933745e-07,-2.43989999982915e-07
0.1225,1.4805466874431896e-08,-2.375871852909202e-07,-2.449899999838955e-07
0.123,1.489096822374519e-08,-2.38544434623892e-07,-2.45989999984876e-07
0.1235,1.4976626054227806e-08,-2.395016057162568e-07,-2.469899999858565e-07
0.124,1.5062440031826043e-08,-2.404586987350581e-07,-2.4798999998683704e-07
0.1245,1.5148409824357735e-08,-2.4141571384637635e-07,-2.4898999998781756e-07
0.125,1.5234535101554924e-08,-2.423726512153465e-07,-2.4998999998879807e-07
0.1255,1.5320815535031126e-08,-2.433295110061639e-07,-2.509899999897786e-07
