time,force,tip,base,indentation,sim_params
0.0,0.0,4e-09,4e-09,0.0,"{'v': 2e-06, 'k': 2, 'Q': 2, 'f': 75000.0, 'R': 1e-06, 'model': {'Ee': 500000.0, 'arms': [{'E': 500000.0, 'T': 0.0005}, {'E': 500000.0, 'T': 0.005}]}, 'name': 'test_cond_18.csv', 'nu': 0.5, 'hamaker_constant': 0}"
0.00075,0.0,2.5021220659007426e-09,2.499999999992813e-09,-0.0,
0.0015,0.0,1.0021220658967563e-09,9.99999999988865e-10,-0.0,
0.0022500000000000003,7.402298418295464e-11,-4.610867857709252e-10,-5.00000000010421e-10,4.610867857709252e-10,
0.003,4.773571339550046e-10,-1.759527084041902e-09,-2.000000000009199e-09,1.759527084041902e-09,
0.0037500000000000003,9.755916495913683e-10,-3.0104560390601277e-09,-3.500000000022067e-09,3.0104560390601277e-09,
0.0045000000000000005,1.5275980921921893e-09,-4.234484536425846e-09,-5.000000000008575e-09,4.234484536425846e-09,
0.00525,2.1186027793353915e-09,-5.439006182973688e-09,-6.499999999990423e-09,5.439006182973688e-09,
0.006,2.73973802687822e-09,-6.62845747444413e-09,-7.999999999972272e-09,6.62845747444413e-09,
0.00675,3.3850023597988114e-09,-7.805840704233738e-09,-9.49999999995412e-09,7.805840704233738e-09,
0.007500000000000001,4.050182752291564e-09,-8.973263403884144e-09,-1.0999999999935969e-08,8.973263403884144e-09,
0.00825,4.73225911889153e-09,-1.0132236306888161e-08,-1.2499999999917817e-08,1.0132236306888161e-08,
0.009000000000000001,5.429028490078699e-09,-1.128386137619005e-08,-1.3999999999899666e-08,1.128386137619005e-08,
0.00975,6.1388582419945335e-09,-1.2428955260547464e-08,-1.5499999999881514e-08,1.2428955260547464e-08,
0.0105,6.860520478482014e-09,-1.3568132148998775e-08,-1.6999999999863363e-08,1.3568132148998775e-08,
0.01125,7.593078721629889e-09,-1.4701860455218366e-08,-1.849999999984521e-08,1.4701860455218366e-08,
0.012,8.335808972118238e-09,-1.5830502307011265e-08,-1.999999999982706e-08,1.5830502307011265e-08,
0.012750000000000001,9.088143796849867e-09,-1.695434151581656e-08,-2.149999999980891e-08,1.695434151581656e-08,
0.0135,9.8496321454897e-09,-1.807360367762439e-08,-2.2999999999790757e-08,1.807360367762439e-08,
0.01425,1.0619910107566373e-08,-1.9188470800874648e-08,-2.4499999999772606e-08,1.9188470800874648e-08,
0.015000000000000001,1.1398679405458674e-08,-2.0299092064560062e-08,-2.5999999999754454e-08,2.0299092064560062e-08,
0.01575,1.218569143713342e-08,-2.1405591800178835e-08,-2.7499999999736303e-08,2.1405591800178835e-08,
0.0165,1.2980735350819168e-08,-2.250807545682431e-08,-2.899999999971815e-08,2.250807545682431e-08,
0.01725,1.378362908093299e-08,-2.360663408501348e-08,-3.04999999997e-08,2.360663408501348e-08,
0.018000000000000002,1.4594212579237803e-08,-2.4701347722443624e-08,-3.199999999968185e-08,2.4701347722443624e-08,
0.01875,1.5412342686294124e-08,-2.579228795926574e-08,-3.34999999996637e-08,2.579228795926574e-08,
0.0195,1.6237889236757253e-08,-2.6879519886192785e-08,-3.4999999999645546e-08,2.6879519886192785e-08,
0.02025,1.7070732097936668e-08,-2.7963103575791107e-08,-3.6499999999627394e-08,2.7963103575791107e-08,
0.021,1.7910758917463535e-08,-2.9043095209080324e-08,-3.799999999960924e-08,2.9043095209080324e-08,
0.021750000000000002,1.87578634116815e-08,-3.011954793167821e-08,-3.949999999959109e-08,3.011954793167821e-08,
0.0225,1.9611944067420814e-08,-3.119251250316126e-08,-4.099999999957294e-08,3.119251250316126e-08,
0.02325,2.0472903160406583e-08,-3.226203778805738e-08,-4.249999999955479e-08,3.226203778805738e-08,
0.024,2.1340646016383912e-08,-3.3328171125436637e-08,-4.399999999953664e-08,3.3328171125436637e-08,
0.02475,2.2215080458289254e-08,-3.439095860543556e-08,-4.5499999999518485e-08,3.439095860543556e-08,
0.025500000000000002,2.309611639590454e-08,-3.545044527451983e-08,-4.6999999999500334e-08,3.545044527451983e-08,
0.02625,2.398366552439282e-08,-3.650667528628614e-08,-4.849999999948218e-08,3.650667528628614e-08,
0.027,2.4877641105756567e-08,-3.755969201077783e-08,-4.999999999946403e-08,3.755969201077783e-08,
0.02775,2.5777957813179843e-08,-3.860953811235932e-08,-5.149999999944588e-08,3.860953811235932e-08,
0.0285,2.668453162271151e-08,-3.965625560389726e-08,-5.299999999942773e-08,3.965625560389726e-08,
0.02925,2.7597279740315956e-08,-4.069988588325962e-08,-5.4499999999409577e-08,4.069988588325962e-08,
0.030000000000000002,2.85161205550161e-08,-4.174046975676129e-08,-5.5999999999391425e-08,4.174046975676129e-08,
0.03075,2.9440973610989617e-08,-4.277804745312267e-08,-5.7499999999373274e-08,4.277804745312267e-08,
0.0315,3.037175959314945e-08,-4.381265863069283e-08,-5.899999999935512e-08,4.381265863069283e-08,
0.03225,3.1308400322309536e-08,-4.4844342380162407e-08,-6.049999999963321e-08,4.4844342380162407e-08,
0.033,3.225081875537638e-08,-4.58731372237893e-08,-6.200000000011137e-08,4.58731372237893e-08,
0.03375,3.319893899042294e-08,-4.689908111314473e-08,-6.350000000058953e-08,4.689908111314473e-08,
0.0345,3.415268627350434e-08,-4.792221142601694e-08,-6.500000000106768e-08,4.792221142601694e-08,
0.035250000000000004,3.511198700559347e-08,-4.8942564962737486e-08,-6.650000000154584e-08,4.8942564962737486e-08,
0.036000000000000004,3.607676874939386e-08,-4.9960177942780194e-08,-6.8000000002024e-08,4.9960177942780194e-08,
0.03675,3.704696023510735e-08,-5.097508600186996e-08,-6.950000000250216e-08,5.097508600186996e-08,
0.0375,3.802249136474997e-08,-5.198732418983036e-08,-7.100000000298031e-08,5.198732418983036e-08,
0.03825,3.9003293214700134e-08,-5.299692696930201e-08,-7.250000000345847e-08,5.299692696930201e-08,
0.039,3.998929803635104e-08,-5.4003928215421246e-08,-7.400000000393663e-08,5.4003928215421246e-08,
0.03975,4.098043925478679e-08,-5.5008361216471894e-08,-7.550000000441478e-08,5.5008361216471894e-08,
0.0405,4.197665146551632e-08,-5.601025867552845e-08,-7.700000000489294e-08,5.601025867552845e-08,
0.04125,4.2977870429286536e-08,-5.7009652713039396e-08,-7.85000000053711e-08,5.7009652713039396e-08,
0.042,4.398403306510272e-08,-5.8006574870317216e-08,-8.000000000584925e-08,5.8006574870317216e-08,
0.04275,4.499507744156099e-08,-5.900105611387476e-08,-8.150000000632741e-08,5.900105611387476e-08,
0.043500000000000004,4.601094276661295e-08,-5.999312684053695e-08,-8.300000000680557e-08,5.999312684053695e-08,
0.04425,4.703156937592313e-08,-6.098281688326534e-08,-8.450000000728372e-08,6.098281688326534e-08,
0.045,4.805689871994652e-08,-6.197015551761617e-08,-8.600000000776188e-08,6.197015551761617e-08,
0.04575,4.9086873349875685e-08,-6.295517146876775e-08,-8.750000000824004e-08,6.295517146876775e-08,
0.0465,4.97051488307941e-08,-6.379634730878836e-08,-8.864856000860617e-08,6.379634730878836e-08,
0.04725,4.74705117221925e-08,-6.341398005717218e-08,-8.714856000812801e-08,6.341398005717218e-08,
0.048,4.5535033319909724e-08,-6.28818594607218e-08,-8.564856000764985e-08,6.28818594607218e-08,
0.04875,4.375107332852073e-08,-6.227392304337925e-08,-8.41485600071717e-08,6.227392304337925e-08,
0.0495,4.206845881762025e-08,-6.161529295430922e-08,-8.264856000669354e-08,6.161529295430922e-08,
0.05025,4.046685246315854e-08,-6.091614897467678e-08,-8.114856000621538e-08,6.091614897467678e-08,
0.051000000000000004,3.893542571115181e-08,-6.018190909151913e-08,-7.964856000573722e-08,6.018190909151913e-08,
0.051750000000000004,3.7466703844501585e-08,-5.941631211143799e-08,-7.814856000525907e-08,5.941631211143799e-08,
0.0525,3.605466674859236e-08,-5.862236882591063e-08,-7.664856000478091e-08,5.862236882591063e-08,
0.05325,3.469413198870898e-08,-5.780267094085959e-08,-7.514856000430275e-08,5.780267094085959e-08,
0.054,3.338052775218623e-08,-5.69595047495116e-08,-7.36485600038246e-08,5.69595047495116e-08,
0.05475,3.21097873704274e-08,-5.609490391765542e-08,-7.214856000334644e-08,5.609490391765542e-08,
0.0555,3.087828441952483e-08,-5.521068194993825e-08,-7.064856000286828e-08,5.521068194993825e-08,
0.05625,2.9682783634425585e-08,-5.430845674019193e-08,-6.914856000239013e-08,5.430845674019193e-08,
0.057,2.852039979472076e-08,-5.338967113290102e-08,-6.764856000191197e-08,5.338967113290102e-08,
0.05775,2.7388561866358405e-08,-5.245561085557128e-08,-6.614856000143381e-08,5.245561085557128e-08,
0.0585,2.6284981265724037e-08,-5.150742038934883e-08,-6.464856000095566e-08,5.150742038934883e-08,
0.059250000000000004,2.5207623626342505e-08,-5.0546117087976656e-08,-6.31485600004775e-08,5.0546117087976656e-08,
0.060000000000000005,2.4154683636736102e-08,-4.957260376091207e-08,-6.164855999999934e-08,4.957260376091207e-08,
0.06075,2.31245626042112e-08,-4.858767989324848e-08,-6.014855999952119e-08,4.858767989324848e-08,
0.0615,2.2115848451597607e-08,-4.7592051649289976e-08,-5.8648559999359375e-08,4.7592051649289976e-08,
0.06225,2.1127297890379766e-08,-4.658634078667251e-08,-5.7148559999377527e-08,4.658634078667251e-08,
0.063,2.0157820549412754e-08,-4.557109259372431e-08,-5.564855999939568e-08,4.557109259372431e-08,
0.06375,1.9206464861028637e-08,-4.4546782947817565e-08,-5.414855999941383e-08,4.4546782947817565e-08,
0.0645,1.8272405532149736e-08,-4.351382458069292e-08,-5.264855999943198e-08,4.351382458069292e-08,
0.06525,1.7354932449768755e-08,-4.2472572626688386e-08,-5.114855999945013e-08,4.2472572626688386e-08,
0.066,1.6453440888430392e-08,-4.142332951987474e-08,-4.9648559999468284e-08,4.142332951987474e-08,
0.06675,1.556742290487579e-08,-4.036634929753744e-08,-4.8148559999486435e-08,4.036634929753744e-08,
0.0675,1.4696459820833279e-08,-3.930184135951644e-08,-4.664855999950459e-08,3.930184135951644e-08,
0.06825,1.3840215709685887e-08,-3.822997372555921e-08,-4.514855999952274e-08,3.822997372555921e-08,
0.069,1.2998431816638447e-08,-3.7150875825872426e-08,-4.364855999954089e-08,3.7150875825872426e-08,
0.06975,1.2170921855472319e-08,-3.606464085335067e-08,-4.214855999955904e-08,3.606464085335067e-08,
0.07050000000000001,1.135756813822624e-08,-3.4971327699309625e-08,-4.064855999957719e-08,3.4971327699309625e-08,
0.07125000000000001,1.0558318507680814e-08,-3.3870962487807426e-08,-3.9148559999595344e-08,3.3870962487807426e-08,
0.07200000000000001,9.773184056685516e-09,-3.2763539716533245e-08,-3.7648559999613495e-08,3.2763539716533245e-08,
0.07275,9.002237633791843e-09,-3.164902300455118e-08,-3.614855999963165e-08,3.164902300455118e-08,
0.0735,8.245613151955544e-09,-3.052734543852893e-08,-3.46485599996498e-08,3.052734543852893e-08,
0.07425,7.5035057371918e-09,-2.939840949902142e-08,-3.314855999966795e-08,2.939840949902142e-08,
0.075,6.776172778206247e-09,-2.8262086536322495e-08,-3.16485599996861e-08,2.8262086536322495e-08,
0.07575,6.063935967815187e-09,-2.7118215750496762e-08,-3.014855999970425e-08,2.7118215750496762e-08,
0.0765,5.36718446475089e-09,-2.596660261132515e-08,-2.8648559999722404e-08,2.596660261132515e-08,
0.07725,4.686379353503565e-09,-2.4807016629381105e-08,-2.7148559999740556e-08,2.4807016629381105e-08,
0.078,4.022059644960881e-09,-2.3639188356906168e-08,-2.5648559999758707e-08,2.3639188356906168e-08,
0.07875,3.374850148879805e-09,-2.2462805453043246e-08,-2.414855999977686e-08,2.2462805453043246e-08,
0.0795,2.745471671357045e-09,-2.127750758694417e-08,-2.264855999979501e-08,2.127750758694417e-08,
0.08025,2.1347541629978033e-09,-2.0082879866050736e-08,-2.114855999981316e-08,2.0082879866050736e-08,
0.081,1.5436536925347161e-09,-1.8878444352380385e-08,-1.9648559999831313e-08,1.8878444352380385e-08,
0.08175,9.732744886149157e-10,-1.7663649045780555e-08,-1.8148559999849464e-08,1.7663649045780555e-08,
0.0825,4.248978500635938e-10,-1.6437853434479873e-08,-1.6648559999867616e-08,1.6437853434479873e-08,
0.08325,-9.997940581946797e-11,-1.5200309278929802e-08,-1.5148559999885767e-08,1.5200309278929802e-08,
0.084,-5.995928880985251e-10,-1.3950134595783113e-08,-1.3648559999903919e-08,1.3950134595783113e-08,
0.08475,-1.071838564063097e-09,-1.2686277641088127e-08,-1.214855999992207e-08,1.2686277641088127e-08,
0.0855,-1.5141701954896809e-09,-1.140746565522357e-08,-1.0648559999940222e-08,1.140746565522357e-08,
0.08625000000000001,-1.923448311973365e-09,-1.0112129393101792e-08,-9.148559999958373e-09,1.0112129393101792e-08,
0.08700000000000001,-2.295708127362563e-09,-8.798287157187325e-09,-7.648559999976525e-09,8.798287157187325e-09,
0.08775000000000001,-2.625782916865477e-09,-7.463356624047824e-09,-6.148559999994676e-09,7.463356624047824e-09,
0.0885,-2.9066473053808707e-09,-6.1038267680701e-09,-4.6485600000128274e-09,6.1038267680701e-09,
0.08925,-3.1281526502909238e-09,-4.7146261979122825e-09,-3.148560000019052e-09,4.7146261979122825e-09,
0.09,-3.274204250227223e-09,-3.2877135729979627e-09,-1.648560000008398e-09,3.2877135729979627e-09,
0.09075,-3.3146617366063506e-09,-1.8080350032141802e-09,-1.485600000103291e-10,1.8080350032141802e-09,
0.0915,-3.1616963125076053e-09,-2.3178370527990524e-10,1.351439999988246e-09,2.3178370527990524e-10,
0.09225,-2.6521889745283873e-09,1.5229109685226933e-09,2.851439999995828e-09,-0.0,
